Id,Time[ns],0:UART: RX/TX
1,1590078720.00,B5
2,1590089560.00,62
3,1590100440.00,0A
4,1590111280.00,04
5,1590122160.00,A0
6,1590133000.00,00
7,1590143880.00,52
8,1590154720.00,4F
9,1590165580.00,4D
10,1590176440.00,20
11,1590187300.00,53
12,1590198160.00,50
13,1590209020.00,47
14,1590219880.00,20
15,1590230740.00,35
16,1590241600.00,2E
17,1590252460.00,31
18,1590263320.00,30
19,1590274180.00,20
20,1590285040.00,28
21,1590295900.00,37
22,1590306760.00,62
23,1590317620.00,32
24,1590328480.00,30
25,1590339340.00,32
26,1590350200.00,65
27,1590361060.00,29
28,1590371920.00,00
29,1590382780.00,00
30,1590393640.00,00
31,1590404500.00,00
32,1590415360.00,00
33,1590426220.00,00
34,1590437080.00,00
35,1590447940.00,00
36,1590458800.00,00
37,1590469660.00,30
38,1590480520.00,30
39,1590491380.00,30
40,1590502240.00,41
41,1590513100.00,30
42,1590523940.00,30
43,1590534820.00,30
44,1590545660.00,30
45,1590556540.00,00
46,1590567380.00,00
47,1590578260.00,46
48,1590589100.00,57
49,1590599980.00,56
50,1590610820.00,45
51,1590621680.00,52
52,1590632540.00,3D
53,1590643400.00,53
54,1590654260.00,50
55,1590665120.00,47
56,1590675980.00,20
57,1590686840.00,35
58,1590697700.00,2E
59,1590708560.00,31
60,1590719420.00,30
61,1590730280.00,00
62,1590741140.00,00
63,1590752000.00,00
64,1590762860.00,00
65,1590773720.00,00
66,1590784580.00,00
67,1590795440.00,00
68,1590806300.00,00
69,1590817160.00,00
70,1590828020.00,00
71,1590838880.00,00
72,1590849740.00,00
73,1590860600.00,00
74,1590871460.00,00
75,1590882320.00,00
76,1590893180.00,00
77,1590904040.00,50
78,1590914900.00,52
79,1590925760.00,4F
80,1590936620.00,54
81,1590947480.00,56
82,1590958340.00,45
83,1590969200.00,52
84,1590980060.00,3D
85,1590990920.00,33
86,1591001760.00,34
87,1591012640.00,2E
88,1591023480.00,31
89,1591034360.00,30
90,1591045200.00,00
91,1591056080.00,00
92,1591066920.00,00
93,1591077800.00,00
94,1591088640.00,00
95,1591099500.00,00
96,1591110360.00,00
97,1591121220.00,00
98,1591132080.00,00
99,1591142940.00,00
100,1591153800.00,00
101,1591164660.00,00
102,1591175520.00,00
103,1591186380.00,00
104,1591197240.00,00
105,1591208100.00,00
106,1591218960.00,00
107,1591229820.00,47
108,1591240680.00,50
109,1591251540.00,53
110,1591262400.00,3B
111,1591273260.00,47
112,1591284120.00,4C
113,1591294980.00,4F
114,1591305840.00,3B
115,1591316700.00,47
116,1591327560.00,41
117,1591338420.00,4C
118,1591349280.00,3B
119,1591360140.00,42
120,1591371000.00,44
121,1591381860.00,53
122,1591392720.00,00
123,1591403580.00,00
124,1591414440.00,00
125,1591425300.00,00
126,1591436160.00,00
127,1591447020.00,00
128,1591457880.00,00
129,1591468740.00,00
130,1591479580.00,00
131,1591490460.00,00
132,1591501300.00,00
133,1591512180.00,00
134,1591523020.00,00
135,1591533900.00,00
136,1591544740.00,00
137,1591555620.00,53
138,1591566460.00,42
139,1591577320.00,41
140,1591588180.00,53
141,1591599040.00,3B
142,1591609900.00,51
143,1591620760.00,5A
144,1591631620.00,53
145,1591642480.00,53
146,1591653340.00,00
147,1591664200.00,00
148,1591675060.00,00
149,1591685920.00,00
150,1591696780.00,00
151,1591707640.00,00
152,1591718500.00,00
153,1591729360.00,00
154,1591740220.00,00
155,1591751080.00,00
156,1591761940.00,00
157,1591772800.00,00
158,1591783660.00,00
159,1591794520.00,00
160,1591805380.00,00
161,1591816240.00,00
162,1591827100.00,00
163,1591837960.00,00
164,1591848820.00,00
165,1591859680.00,00
166,1591870540.00,00
167,1591881400.00,F7
168,1591892260.00,14
169,1592713920.00,B5
170,1592724760.00,62
171,1592735640.00,05
172,1592746480.00,01
173,1592757360.00,02
174,1592768200.00,00
175,1592779060.00,06
176,1592789920.00,8A
177,1592800780.00,98
178,1592811640.00,C1
179,1612620460.00,B5
180,1612631320.00,62
181,1612642180.00,05
182,1612653040.00,01
183,1612663900.00,02
184,1612674760.00,00
185,1612685620.00,06
186,1612696480.00,8A
187,1612707340.00,98
188,1612718200.00,C1
189,1632615100.00,B5
190,1632625960.00,62
191,1632636820.00,05
192,1632647680.00,01
193,1632658540.00,02
194,1632669400.00,00
195,1632680260.00,06
196,1632691120.00,8A
197,1632701980.00,98
198,1632712840.00,C1
199,1633190320.00,B5
200,1633201180.00,62
201,1633212040.00,05
202,1633222900.00,01
203,1633233760.00,02
204,1633244620.00,00
205,1633255480.00,06
206,1633266340.00,8A
207,1633277200.00,98
208,1633288060.00,C1
209,1789883380.00,B5
210,1789894240.00,62
211,1789905100.00,05
212,1789915960.00,01
213,1789926820.00,02
214,1789937680.00,00
215,1789948540.00,06
216,1789959400.00,8A
217,1789970260.00,98
218,1789981120.00,C1
219,1799461960.00,B5
220,1799472820.00,62
221,1799483680.00,05
222,1799494540.00,01
223,1799505400.00,02
224,1799516260.00,00
225,1799527120.00,06
226,1799537980.00,8A
227,1799548840.00,98
228,1799559700.00,C1
229,1809463800.00,B5
230,1809474660.00,62
231,1809485520.00,05
232,1809496380.00,01
233,1809507240.00,02
234,1809518100.00,00
235,1809528960.00,06
236,1809539820.00,8A
237,1809550680.00,98
238,1809561540.00,C1
239,1819475000.00,B5
240,1819485860.00,62
241,1819496720.00,05
242,1819507580.00,01
243,1819518440.00,02
244,1819529300.00,00
245,1819540160.00,06
246,1819551020.00,8A
247,1819561880.00,98
248,1819572740.00,C1
249,1829478860.00,B5
250,1829489740.00,62
251,1829500580.00,05
252,1829511460.00,01
253,1829522300.00,02
254,1829533180.00,00
255,1829544020.00,06
256,1829554900.00,8A
257,1829565740.00,98
258,1829576620.00,C1
259,1839527740.00,B5
260,1839538600.00,62
261,1839549460.00,05
262,1839560320.00,01
263,1839571180.00,02
264,1839582040.00,00
265,1839592900.00,06
266,1839603760.00,8A
267,1839614620.00,98
268,1839625480.00,C1
269,1849461300.00,B5
270,1849472160.00,62
271,1849483020.00,05
272,1849493880.00,01
273,1849504740.00,02
274,1849515600.00,00
275,1849526460.00,06
276,1849537320.00,8A
277,1849548180.00,98
278,1849559040.00,C1
279,1859479160.00,B5
280,1859490020.00,62
281,1859500880.00,05
282,1859511740.00,01
283,1859522600.00,02
284,1859533460.00,00
285,1859544320.00,06
286,1859555160.00,8A
287,1859566040.00,98
288,1859576880.00,C1
289,1869468160.00,B5
290,1869479020.00,62
291,1869489880.00,05
292,1869500740.00,01
293,1869511600.00,02
294,1869522460.00,00
295,1869533320.00,06
296,1869544180.00,8A
297,1869555040.00,98
298,1869565900.00,C1
299,1879458600.00,B5
300,1879469460.00,62
301,1879480320.00,05
302,1879491180.00,01
303,1879502040.00,02
304,1879512900.00,00
305,1879523760.00,06
306,1879534620.00,8A
307,1879545480.00,98
308,1879556340.00,C1
309,1889481120.00,B5
310,1889492000.00,62
311,1889502840.00,05
312,1889513720.00,01
313,1889524560.00,02
314,1889535440.00,00
315,1889546280.00,06
316,1889557160.00,8A
317,1889568000.00,98
318,1889578860.00,C1
319,1899471700.00,B5
320,1899482560.00,62
321,1899493420.00,05
322,1899504280.00,01
323,1899515140.00,02
324,1899526000.00,00
325,1899536860.00,06
326,1899547720.00,8A
327,1899558580.00,98
328,1899569440.00,C1
329,1909527160.00,B5
330,1909538020.00,62
331,1909548880.00,05
332,1909559740.00,01
333,1909570600.00,02
334,1909581460.00,00
335,1909592320.00,06
336,1909603180.00,8A
337,1909614040.00,98
338,1909624900.00,C1
339,1919470560.00,B5
340,1919481420.00,62
341,1919492280.00,05
342,1919503140.00,01
343,1919514000.00,02
344,1919524860.00,00
345,1919535720.00,06
346,1919546580.00,8A
347,1919557440.00,98
348,1919568300.00,C1
349,1929481700.00,B5
350,1929492540.00,62
351,1929503420.00,05
352,1929514260.00,01
353,1929525140.00,02
354,1929535980.00,00
355,1929546860.00,06
356,1929557700.00,8A
357,1929568560.00,98
358,1929579420.00,C1
359,1940547500.00,B5
360,1940558340.00,62
361,1940569220.00,05
362,1940580060.00,01
363,1940590940.00,02
364,1940601780.00,00
365,1940612640.00,06
366,1940623500.00,8A
367,1940634360.00,98
368,1940645220.00,C1
369,1949941660.00,B5
370,1949952520.00,62
371,1949963380.00,05
372,1949974240.00,01
373,1949985100.00,02
374,1949995960.00,00
375,1950006820.00,06
376,1950017680.00,8A
377,1950028540.00,98
378,1950039400.00,C1
379,1959653140.00,B5
380,1959664020.00,62
381,1959674860.00,05
382,1959685740.00,01
383,1959696580.00,02
384,1959707460.00,00
385,1959718300.00,06
386,1959729160.00,8A
387,1959740020.00,98
388,1959750880.00,C1
389,1969519580.00,B5
390,1969530440.00,62
391,1969541300.00,05
392,1969552160.00,01
393,1969563020.00,02
394,1969573880.00,00
395,1969584740.00,06
396,1969595600.00,8A
397,1969606460.00,98
398,1969617320.00,C1
399,1979798200.00,B5
400,1979809060.00,62
401,1979819920.00,05
402,1979830780.00,01
403,1979841640.00,02
404,1979852500.00,00
405,1979863360.00,06
406,1979874220.00,8A
407,1979885080.00,98
408,1979895940.00,C1
409,1990922900.00,B5
410,1990933780.00,62
411,1990944620.00,05
412,1990955500.00,01
413,1990966340.00,02
414,1990977200.00,00
415,1990988060.00,06
416,1990998920.00,8A
417,1991009780.00,98
418,1991020640.00,C1
419,1999686020.00,B5
420,1999696860.00,62
421,1999707740.00,05
422,1999718580.00,01
423,1999729460.00,02
424,1999740300.00,00
425,1999751180.00,06
426,1999762020.00,8A
427,1999772880.00,98
428,1999783740.00,C1
429,2009462300.00,B5
430,2009473180.00,62
431,2009484020.00,05
432,2009494900.00,01
433,2009505740.00,02
434,2009516620.00,00
435,2009527460.00,06
436,2009538320.00,8A
437,2009549180.00,98
438,2009560040.00,C1
439,2019475140.00,B5
440,2019486000.00,62
441,2019496860.00,05
442,2019507720.00,01
443,2019518580.00,02
444,2019529440.00,00
445,2019540300.00,06
446,2019551160.00,8A
447,2019562020.00,98
448,2019572880.00,C1
449,2029513020.00,B5
450,2029523880.00,62
451,2029534740.00,05
452,2029545600.00,01
453,2029556460.00,02
454,2029567320.00,00
455,2029578180.00,06
456,2029589040.00,8A
457,2029599900.00,98
458,2029610760.00,C1
459,2039572740.00,B5
460,2039583620.00,62
461,2039594460.00,05
462,2039605340.00,01
463,2039616180.00,02
464,2039627060.00,00
465,2039637900.00,06
466,2039648780.00,09
467,2039659620.00,17
468,2039670480.00,40
469,2049785460.00,B5
470,2049796320.00,62
471,2049807180.00,05
472,2049818040.00,01
473,2049828900.00,02
474,2049839760.00,00
475,2049850620.00,06
476,2049861480.00,8A
477,2049872340.00,98
478,2049883200.00,C1
479,2261920120.00,B5
480,2261930980.00,62
481,2261941840.00,01
482,2261952700.00,07
483,2261963560.00,5C
484,2261974420.00,00
485,2261985280.00,F3
486,2261996140.00,05
487,2262007000.00,00
488,2262017860.00,00
489,2262028720.00,E9
490,2262039580.00,07
491,2262050440.00,01
492,2262061300.00,0C
493,2262072160.00,00
494,2262083020.00,00
495,2262093880.00,01
496,2262104740.00,37
497,2262115600.00,06
498,2262126460.00,00
499,2262137320.00,00
500,2262148180.00,00
501,2262159040.00,FD
502,2262169880.00,89
503,2262180760.00,DE
504,2262191600.00,11
505,2262202480.00,03
506,2262213320.00,01
507,2262224200.00,0E
508,2262235040.00,12
509,2262245900.00,11
510,2262256760.00,AE
511,2262267620.00,33
512,2262278480.00,D0
513,2262289340.00,A2
514,2262300200.00,13
515,2262311060.00,5F
516,2262321920.00,0F
517,2262332780.00,E9
518,2262343640.00,1E
519,2262354500.00,01
520,2262365360.00,00
521,2262376220.00,26
522,2262387080.00,8A
523,2262397940.00,01
524,2262408800.00,00
525,2262419660.00,9B
526,2262430520.00,05
527,2262441380.00,00
528,2262452240.00,00
529,2262463100.00,19
530,2262473960.00,08
531,2262484820.00,00
532,2262495680.00,00
533,2262506540.00,FE
534,2262517400.00,FF
535,2262528260.00,FF
536,2262539120.00,FF
537,2262549980.00,01
538,2262560840.00,00
539,2262571700.00,00
540,2262582560.00,00
541,2262593420.00,01
542,2262604280.00,00
543,2262615140.00,00
544,2262626000.00,00
545,2262636860.00,00
546,2262647700.00,00
547,2262658580.00,00
548,2262669420.00,00
549,2262680300.00,DA
550,2262691140.00,8A
551,2262702020.00,C7
552,2262712860.00,00
553,2262723720.00,08
554,2262734580.00,00
555,2262745440.00,00
556,2262756300.00,00
557,2262767160.00,9E
558,2262778020.00,D8
559,2262788880.00,F0
560,2262799740.00,00
561,2262810600.00,6E
562,2262821460.00,00
563,2262832320.00,00
564,2262843180.00,00
565,2262854040.00,00
566,2262864900.00,00
567,2262875760.00,00
568,2262886620.00,00
569,2262897480.00,E0
570,2262908340.00,4A
571,2262919200.00,23
572,2262930060.00,00
573,2262940920.00,00
574,2262951780.00,00
575,2262962640.00,00
576,2262973500.00,00
577,2262984360.00,E0
578,2262995220.00,70
579,2263006080.00,B5
580,2263016940.00,62
581,2263027800.00,01
582,2263038660.00,01
583,2263049520.00,14
584,2263060380.00,00
585,2263071240.00,F3
586,2263082080.00,05
587,2263092960.00,00
588,2263103800.00,00
589,2263114680.00,7B
590,2263125520.00,B0
591,2263136400.00,DD
592,2263147240.00,05
593,2263158120.00,16
594,2263168960.00,70
595,2263179820.00,40
596,2263190680.00,DE
597,2263201540.00,93
598,2263212400.00,76
599,2263223260.00,6F
600,2263234120.00,10
601,2263244980.00,FC
602,2263255840.00,00
603,2263266700.00,00
604,2263277560.00,00
605,2263288420.00,43
606,2263299280.00,6B
607,2263310140.00,B5
608,2263321000.00,62
609,2263331860.00,01
610,2263342720.00,02
611,2263353580.00,1C
612,2263364440.00,00
613,2263375300.00,F3
614,2263386160.00,05
615,2263397020.00,00
616,2263407880.00,00
617,2263418740.00,11
618,2263429600.00,AA
619,2263440460.00,3B
620,2263451320.00,D0
621,2263462180.00,A2
622,2263473040.00,13
623,2263483900.00,5E
624,2263494760.00,0F
625,2263505620.00,E9
626,2263516480.00,1E
627,2263527340.00,01
628,2263538200.00,00
629,2263549060.00,26
630,2263559900.00,8A
631,2263570780.00,01
632,2263581620.00,00
633,2263592500.00,9B
634,2263603340.00,05
635,2263614220.00,00
636,2263625060.00,00
637,2263635940.00,19
638,2263646780.00,08
639,2263657640.00,00
640,2263668500.00,00
641,2263679360.00,79
642,2263690220.00,04
643,2263701080.00,B5
644,2263711940.00,62
645,2263722800.00,01
646,2263733660.00,03
647,2263744520.00,10
648,2263755380.00,00
649,2263766240.00,F3
650,2263777100.00,05
651,2263787960.00,00
652,2263798820.00,00
653,2263809680.00,03
654,2263820540.00,0F
655,2263831400.00,00
656,2263842260.00,08
657,2263853120.00,00
658,2263863980.00,00
659,2263874840.00,00
660,2263885700.00,00
661,2263896560.00,F3
662,2263907420.00,05
663,2263918280.00,00
664,2263929140.00,00
665,2263940000.00,1E
666,2263950860.00,D4
667,2263961720.00,B5
668,2263972580.00,62
669,2263983440.00,01
670,2263994300.00,04
671,2264005160.00,12
672,2264016020.00,00
673,2264026880.00,F3
674,2264037720.00,05
675,2264048600.00,00
676,2264059440.00,00
677,2264070320.00,64
678,2264081160.00,00
679,2264092040.00,64
680,2264102880.00,00
681,2264113760.00,64
682,2264124600.00,00
683,2264135460.00,64
684,2264146320.00,00
685,2264157180.00,64
686,2264168040.00,00
687,2264178900.00,64
688,2264189760.00,00
689,2264200620.00,64
690,2264211480.00,00
691,2264222340.00,CB
692,2264233200.00,1D
693,2264244060.00,B5
694,2264254920.00,62
695,2264265780.00,01
696,2264276640.00,12
697,2264287500.00,24
698,2264298360.00,00
699,2264309220.00,F3
700,2264320080.00,05
701,2264330940.00,00
702,2264341800.00,00
703,2264352660.00,00
704,2264363520.00,00
705,2264374380.00,00
706,2264385240.00,00
707,2264396100.00,00
708,2264406960.00,00
709,2264417820.00,00
710,2264428680.00,00
711,2264439540.00,00
712,2264450400.00,00
713,2264461260.00,00
714,2264472120.00,00
715,2264482980.00,00
716,2264493840.00,00
717,2264504700.00,00
718,2264515540.00,00
719,2264526420.00,00
720,2264537260.00,00
721,2264548140.00,00
722,2264558980.00,00
723,2264569860.00,00
724,2264580700.00,00
725,2264591580.00,00
726,2264602420.00,00
727,2264613280.00,64
728,2264624140.00,00
729,2264635000.00,00
730,2264645860.00,00
731,2264656720.00,00
732,2264667580.00,00
733,2264678440.00,00
734,2264689300.00,00
735,2264700160.00,93
736,2264711020.00,39
737,2264721880.00,B5
738,2264732740.00,62
739,2264743600.00,01
740,2264754460.00,21
741,2264765320.00,14
742,2264776180.00,00
743,2264787040.00,F3
744,2264797900.00,05
745,2264808760.00,00
746,2264819620.00,00
747,2264830480.00,00
748,2264841340.00,00
749,2264852200.00,00
750,2264863060.00,00
751,2264873920.00,00
752,2264884780.00,00
753,2264895640.00,00
754,2264906500.00,00
755,2264917360.00,E9
756,2264928220.00,07
757,2264939080.00,01
758,2264949940.00,0C
759,2264960800.00,00
760,2264971640.00,00
761,2264982520.00,01
762,2264993360.00,F7
763,2265004240.00,23
764,2265015080.00,D6
765,2265025960.00,B5
766,2265036800.00,62
767,2265047660.00,01
768,2265058520.00,22
769,2265069380.00,14
770,2265080240.00,00
771,2265091100.00,F3
772,2265101960.00,05
773,2265112820.00,00
774,2265123680.00,00
775,2265134540.00,00
776,2265145400.00,00
777,2265156260.00,00
778,2265167120.00,00
779,2265177980.00,00
780,2265188840.00,00
781,2265199700.00,00
782,2265210560.00,00
783,2265221420.00,00
784,2265232280.00,00
785,2265243140.00,00
786,2265254000.00,00
787,2265264860.00,00
788,2265275720.00,00
789,2265286580.00,00
790,2265297440.00,00
791,2265308300.00,2F
792,2265319160.00,39
793,2265330020.00,B5
794,2265340880.00,62
795,2265351740.00,01
796,2265362600.00,35
797,2265373460.00,E0
798,2265384320.00,00
799,2265395180.00,F3
800,2265406040.00,05
801,2265416900.00,00
802,2265427760.00,00
803,2265438620.00,01
804,2265449460.00,12
805,2265460340.00,00
806,2265471180.00,00
807,2265482060.00,00
808,2265492900.00,01
809,2265503780.00,23
810,2265514620.00,2C
811,2265525480.00,F2
812,2265536340.00,00
813,2265547200.00,00
814,2265558060.00,00
815,2265568920.00,1F
816,2265579780.00,19
817,2265590640.00,00
818,2265601500.00,00
819,2265612360.00,00
820,2265623220.00,02
821,2265634080.00,23
822,2265644940.00,1A
823,2265655800.00,D6
824,2265666660.00,00
825,2265677520.00,00
826,2265688380.00,00
827,2265699240.00,1F
828,2265710100.00,19
829,2265720960.00,00
830,2265731820.00,00
831,2265742680.00,00
832,2265753540.00,03
833,2265764400.00,23
834,2265775260.00,39
835,2265786120.00,2F
836,2265796980.00,01
837,2265807840.00,00
838,2265818700.00,00
839,2265829560.00,1F
840,2265840420.00,19
841,2265851280.00,00
842,2265862140.00,00
843,2265873000.00,00
844,2265883860.00,0A
845,2265894720.00,1E
846,2265905560.00,02
847,2265916440.00,83
848,2265927280.00,00
849,2265938160.00,00
850,2265949000.00,00
851,2265959880.00,1F
852,2265970720.00,19
853,2265981600.00,00
854,2265992440.00,00
855,2266003300.00,00
856,2266014160.00,0C
857,2266025020.00,1E
858,2266035880.00,03
859,2266046740.00,14
860,2266057600.00,00
861,2266068460.00,00
862,2266079320.00,00
863,2266090180.00,1F
864,2266101040.00,19
865,2266111900.00,00
866,2266122760.00,00
867,2266133620.00,00
868,2266144480.00,1A
869,2266155340.00,23
870,2266166200.00,10
871,2266177060.00,92
872,2266187920.00,00
873,2266198780.00,00
874,2266209640.00,00
875,2266220500.00,1F
876,2266231360.00,19
877,2266242220.00,00
878,2266253080.00,00
879,2266263940.00,00
880,2266274800.00,1C
881,2266285660.00,23
882,2266296520.00,3B
883,2266307380.00,46
884,2266318240.00,00
885,2266329100.00,00
886,2266339960.00,00
887,2266350820.00,1F
888,2266361660.00,19
889,2266372540.00,00
890,2266383380.00,00
891,2266394260.00,00
892,2266405100.00,1F
893,2266415980.00,23
894,2266426820.00,46
895,2266437700.00,90
896,2266448540.00,00
897,2266459420.00,00
898,2266470260.00,00
899,2266481120.00,1F
900,2266491980.00,19
901,2266502840.00,00
902,2266513700.00,00
903,2266524560.00,00
904,2266535420.00,20
905,2266546280.00,23
906,2266557140.00,1B
907,2266568000.00,4D
908,2266578860.00,00
909,2266589720.00,00
910,2266600580.00,00
911,2266611440.00,1F
912,2266622300.00,19
913,2266633160.00,00
914,2266644020.00,00
915,2266654880.00,01
916,2266665740.00,83
917,2266676600.00,23
918,2266687460.00,22
919,2266698320.00,B8
920,2266709180.00,00
921,2266720040.00,00
922,2266730900.00,00
923,2266741760.00,1F
924,2266752620.00,19
925,2266763480.00,00
926,2266774340.00,00
927,2266785200.00,01
928,2266796060.00,85
929,2266806920.00,23
930,2266817780.00,21
931,2266828640.00,C7
932,2266839480.00,00
933,2266850360.00,00
934,2266861200.00,00
935,2266872080.00,1F
936,2266882920.00,19
937,2266893800.00,00
938,2266904640.00,00
939,2266915520.00,01
940,2266926360.00,8A
941,2266937220.00,23
942,2266948080.00,22
943,2266958940.00,AB
944,2266969800.00,00
945,2266980660.00,00
946,2266991520.00,00
947,2267002380.00,1F
948,2267013240.00,19
949,2267024100.00,00
950,2267034960.00,00
951,2267045820.00,02
952,2267056680.00,05
953,2267067540.00,23
954,2267078400.00,2D
955,2267089260.00,45
956,2267100120.00,00
