Id,Time[ns],0:UART: RX/TX
1,1958866780.00,B5
2,1958877670.00,62
3,1958888560.00,0A
4,1958899450.00,04
5,1958910330.00,A0
6,1958921220.00,00
7,1958932110.00,52
8,1958942990.00,4F
9,1958953880.00,4D
10,1958964770.00,20
11,1958975650.00,53
12,1958986550.00,50
13,1958997430.00,47
14,1959008320.00,20
15,1959019200.00,35
16,1959030090.00,2E
17,1959040980.00,31
18,1959051870.00,30
19,1959062750.00,20
20,1959073640.00,28
21,1959084530.00,37
22,1959095410.00,62
23,1959106300.00,32
24,1959117190.00,30
25,1959128070.00,32
26,1959138970.00,65
27,1959149850.00,29
28,1959160740.00,00
29,1959171620.00,00
30,1959182510.00,00
31,1959193400.00,00
32,1959204290.00,00
33,1959215170.00,00
34,1959226060.00,00
35,1959236950.00,00
36,1959247830.00,00
37,1959258720.00,30
38,1959269610.00,30
39,1959280490.00,30
40,1959291380.00,41
41,1959302270.00,30
42,1959313160.00,30
43,1959324040.00,30
44,1959334930.00,30
45,1959345810.00,00
46,1959356710.00,00
47,1959367590.00,46
48,1959378480.00,57
49,1959389370.00,56
50,1959400250.00,45
51,1959411140.00,52
52,1959422030.00,3D
53,1959432910.00,53
54,1959443800.00,50
55,1959454690.00,47
56,1959465580.00,20
57,1959476460.00,35
58,1959487350.00,2E
59,1959498230.00,31
60,1959509130.00,30
61,1959520010.00,00
62,1959530900.00,00
63,1959541780.00,00
64,1959552670.00,00
65,1959563560.00,00
66,1959574450.00,00
67,1959585330.00,00
68,1959596220.00,00
69,1959607110.00,00
70,1959618000.00,00
71,1959628880.00,00
72,1959639770.00,00
73,1959650650.00,00
74,1959661550.00,00
75,1959672430.00,00
76,1959683320.00,00
77,1959694200.00,50
78,1959705090.00,52
79,1959715980.00,4F
80,1959726870.00,54
81,1959737750.00,56
82,1959748640.00,45
83,1959759530.00,52
84,1959770420.00,3D
85,1959781300.00,33
86,1959792190.00,34
87,1959803070.00,2E
88,1959813970.00,31
89,1959824850.00,30
90,1959835740.00,00
91,1959846620.00,00
92,1959857510.00,00
93,1959868400.00,00
94,1959879290.00,00
95,1959890170.00,00
96,1959901060.00,00
97,1959911950.00,00
98,1959922840.00,00
99,1959933720.00,00
100,1959944610.00,00
101,1959955490.00,00
102,1959966390.00,00
103,1959977270.00,00
104,1959988160.00,00
105,1959999040.00,00
106,1960009930.00,00
107,1960020820.00,47
108,1960031710.00,50
109,1960042590.00,53
110,1960053480.00,3B
111,1960064370.00,47
112,1960075250.00,4C
113,1960086140.00,4F
114,1960097030.00,3B
115,1960107910.00,47
116,1960118810.00,41
117,1960129690.00,4C
118,1960140580.00,3B
119,1960151460.00,42
120,1960162350.00,44
121,1960173240.00,53
122,1960184130.00,00
123,1960195010.00,00
124,1960205900.00,00
125,1960216790.00,00
126,1960227670.00,00
127,1960238560.00,00
128,1960249450.00,00
129,1960260330.00,00
130,1960271220.00,00
131,1960282110.00,00
132,1960293000.00,00
133,1960303880.00,00
134,1960314770.00,00
135,1960325660.00,00
136,1960336550.00,00
137,1960347430.00,53
138,1960358320.00,42
139,1960369210.00,41
140,1960380090.00,53
141,1960390980.00,3B
142,1960401870.00,51
143,1960412750.00,5A
144,1960423640.00,53
145,1960434530.00,53
146,1960445420.00,00
147,1960456300.00,00
148,1960467190.00,00
149,1960478070.00,00
150,1960488970.00,00
151,1960499850.00,00
152,1960510740.00,00
153,1960521630.00,00
154,1960532510.00,00
155,1960543400.00,00
156,1960554290.00,00
157,1960565170.00,00
158,1960576060.00,00
159,1960586950.00,00
160,1960597840.00,00
161,1960608720.00,00
162,1960619610.00,00
163,1960630490.00,00
164,1960641390.00,00
165,1960652270.00,00
166,1960663160.00,00
167,1960674040.00,F7
168,1960684930.00,14
169,1968672330.00,B5
170,1968683220.00,62
171,1968694110.00,27
172,1968704990.00,03
173,1968715880.00,0A
174,1968726770.00,00
175,1968737650.00,02
176,1968748540.00,00
177,1968759430.00,00
178,1968770320.00,00
179,1968781200.00,EB
180,1968792090.00,B9
181,1968802970.00,91
182,1968813870.00,0F
183,1968824750.00,2B
184,1968835640.00,54
185,1968846520.00,F9
186,1968857410.00,0F
187,1986030340.00,B5
188,1986041230.00,62
189,1986052110.00,06
190,1986063000.00,8B
191,1986073890.00,0C
192,1986084780.00,00
193,1986095660.00,01
194,1986106550.00,04
195,1986117430.00,00
196,1986128330.00,00
197,1986139210.00,01
198,1986150100.00,00
199,1986160980.00,52
200,1986171870.00,40
201,1986182760.00,00
202,1986193650.00,10
203,1986204530.00,0E
204,1986215420.00,00
205,1986226310.00,53
206,1986237200.00,E5
207,1986248080.00,B5
208,1986258970.00,62
209,1986269850.00,05
210,1986280750.00,01
211,1986291630.00,02
212,1986302520.00,00
213,1986313400.00,06
214,1986324290.00,8B
215,1986335180.00,99
216,1986346070.00,C2
217,1993777880.00,B5
218,1993788770.00,62
219,1993799660.00,06
220,1993810540.00,8B
221,1993821430.00,0C
222,1993832310.00,00
223,1993843210.00,01
224,1993854090.00,04
225,1993864980.00,00
226,1993875860.00,00
227,1993886750.00,01
228,1993897640.00,00
229,1993908530.00,A4
230,1993919410.00,40
231,1993930300.00,00
232,1993941190.00,B0
233,1993952080.00,71
234,1993962960.00,0B
235,1993973850.00,B3
236,1993984730.00,82
237,1993995630.00,B5
238,1994006510.00,62
239,1994017400.00,05
240,1994028280.00,01
241,1994039170.00,02
242,1994050060.00,00
243,1994060950.00,06
244,1994071830.00,8B
245,1994082720.00,99
246,1994093610.00,C2
247,2004283680.00,B5
248,2004294560.00,62
249,2004305450.00,05
250,2004316340.00,01
251,2004327230.00,02
252,2004338110.00,00
253,2004349000.00,06
254,2004359890.00,8A
255,2004370770.00,98
256,2004381660.00,C1
257,2004562310.00,B5
258,2004573210.00,62
259,2004584090.00,05
260,2004594980.00,01
261,2004605860.00,02
262,2004616750.00,00
263,2004627640.00,06
264,2004638530.00,8A
265,2004649410.00,98
266,2004660300.00,C1
267,2013778940.00,B5
268,2013789830.00,62
269,2013800710.00,05
270,2013811600.00,01
271,2013822490.00,02
272,2013833370.00,00
273,2013844260.00,06
274,2013855150.00,8A
275,2013866040.00,98
276,2013876920.00,C1
277,2023790390.00,B5
278,2023801280.00,62
279,2023812170.00,05
280,2023823050.00,01
281,2023833940.00,02
282,2023844830.00,00
283,2023855710.00,06
284,2023866600.00,8A
285,2023877490.00,98
286,2023888380.00,C1
287,2033765500.00,B5
288,2033776390.00,62
289,2033787280.00,05
290,2033798170.00,01
291,2033809050.00,02
292,2033819940.00,00
293,2033830830.00,06
294,2033841710.00,8A
295,2033852600.00,98
296,2033863490.00,C1
297,2043770900.00,B5
298,2043781790.00,62
299,2043792670.00,05
300,2043803560.00,01
301,2043814450.00,02
302,2043825340.00,00
303,2043836220.00,06
304,2043847110.00,8A
305,2043857990.00,98
306,2043868890.00,C1
307,2053754590.00,B5
308,2053765470.00,62
309,2053776360.00,05
310,2053787250.00,01
311,2053798130.00,02
312,2053809020.00,00
313,2053819910.00,06
314,2053830800.00,8A
315,2053841680.00,98
316,2053852570.00,C1
317,2063770530.00,B5
318,2063781410.00,62
319,2063792300.00,05
320,2063803190.00,01
321,2063814080.00,02
322,2063824960.00,00
323,2063835850.00,06
324,2063846730.00,8A
325,2063857630.00,98
326,2063868510.00,C1
327,2073802930.00,B5
328,2073813820.00,62
329,2073824710.00,05
330,2073835590.00,01
331,2073846490.00,02
332,2073857370.00,00
333,2073868260.00,06
334,2073879140.00,8A
335,2073890030.00,98
336,2073900920.00,C1
337,2083765120.00,B5
338,2083776010.00,62
339,2083786900.00,05
340,2083797780.00,01
341,2083808670.00,02
342,2083819560.00,00
343,2083830450.00,06
344,2083841330.00,8A
345,2083852220.00,98
346,2083863110.00,C1
347,2093758680.00,B5
348,2093769560.00,62
349,2093780450.00,05
350,2093791340.00,01
351,2093802230.00,02
352,2093813110.00,00
353,2093824000.00,06
354,2093834890.00,8A
355,2093845770.00,98
356,2093856660.00,C1
357,2103770130.00,B5
358,2103781010.00,62
359,2103791900.00,05
360,2103802790.00,01
361,2103813680.00,02
362,2103824560.00,00
363,2103835450.00,06
364,2103846330.00,8A
365,2103857230.00,98
366,2103868110.00,C1
367,2113762730.00,B5
368,2113773610.00,62
369,2113784500.00,05
370,2113795390.00,01
371,2113806270.00,02
372,2113817170.00,00
373,2113828050.00,06
374,2113838940.00,8A
375,2113849820.00,98
376,2113860710.00,C1
377,2123782680.00,B5
378,2123793570.00,62
379,2123804460.00,05
380,2123815340.00,01
381,2123826230.00,02
382,2123837110.00,00
383,2123848010.00,06
384,2123858890.00,8A
385,2123869780.00,98
386,2123880660.00,C1
387,2133790660.00,B5
388,2133801550.00,62
389,2133812430.00,05
390,2133823330.00,01
391,2133834210.00,02
392,2133845100.00,00
393,2133855980.00,06
394,2133866870.00,8A
395,2133877760.00,98
396,2133888650.00,C1
397,2143778360.00,B5
398,2143789250.00,62
399,2143800130.00,05
400,2143811030.00,01
401,2143821910.00,02
402,2143832800.00,00
403,2143843690.00,06
404,2143854570.00,8A
405,2143865460.00,98
406,2143876350.00,C1
407,2153757900.00,B5
408,2153768790.00,62
409,2153779670.00,05
410,2153790560.00,01
411,2153801450.00,02
412,2153812330.00,00
413,2153823230.00,06
414,2153834110.00,8A
415,2153845000.00,98
416,2153855880.00,C1
417,2163768190.00,B5
418,2163779080.00,62
419,2163789970.00,05
420,2163800860.00,01
421,2163811740.00,02
422,2163822630.00,00
423,2163833510.00,06
424,2163844410.00,8A
425,2163855290.00,98
426,2163866180.00,C1
427,2173825850.00,B5
428,2173836730.00,62
429,2173847620.00,05
430,2173858500.00,01
431,2173869390.00,02
432,2173880280.00,00
433,2173891170.00,06
434,2173902050.00,8A
435,2173912940.00,98
436,2173923830.00,C1
437,2183771900.00,B5
438,2183782790.00,62
439,2183793680.00,05
440,2183804560.00,01
441,2183815450.00,02
442,2183826340.00,00
443,2183837230.00,06
444,2183848110.00,8A
445,2183859000.00,98
446,2183869890.00,C1
447,2193755870.00,B5
448,2193766750.00,62
449,2193777640.00,05
450,2193788520.00,01
451,2193799410.00,02
452,2193810300.00,00
453,2193821190.00,06
454,2193832070.00,8A
455,2193842960.00,98
456,2193853850.00,C1
457,2203795070.00,B5
458,2203805960.00,62
459,2203816850.00,05
460,2203827730.00,01
461,2203838620.00,02
462,2203849510.00,00
463,2203860400.00,06
464,2203871280.00,8A
465,2203882170.00,98
466,2203893050.00,C1
467,2213765010.00,B5
468,2213775910.00,62
469,2213786790.00,05
470,2213797680.00,01
471,2213808570.00,02
472,2213819450.00,00
473,2213830340.00,06
474,2213841230.00,8A
475,2213852110.00,98
476,2213863000.00,C1
477,2223824230.00,B5
478,2223835120.00,62
479,2223846010.00,05
480,2223856890.00,01
481,2223867780.00,02
482,2223878670.00,00
483,2223889550.00,06
484,2223900440.00,8A
485,2223911330.00,98
486,2223922210.00,C1
487,2233762670.00,B5
488,2233773560.00,62
489,2233784450.00,05
490,2233795330.00,01
491,2233806220.00,02
492,2233817110.00,00
493,2233827990.00,06
494,2233838880.00,8A
495,2233849770.00,98
496,2233860650.00,C1
497,2243776700.00,B5
498,2243787590.00,62
499,2243798480.00,05
500,2243809370.00,01
501,2243820250.00,02
502,2243831140.00,00
503,2243842030.00,06
504,2243852920.00,8A
505,2243863800.00,98
506,2243874690.00,C1
507,2253795710.00,B5
508,2253806590.00,62
509,2253817490.00,05
510,2253828370.00,01
511,2253839260.00,02
512,2253850140.00,00
513,2253861030.00,06
514,2253871920.00,8A
515,2253882810.00,98
516,2253893690.00,C1
517,2263844720.00,B5
518,2263855600.00,62
519,2263866490.00,05
520,2263877380.00,01
521,2263888270.00,02
522,2263899150.00,00
523,2263910040.00,06
524,2263920930.00,8A
525,2263931820.00,98
526,2263942700.00,C1
527,2273801390.00,B5
528,2273812280.00,62
529,2273823160.00,05
530,2273834050.00,01
531,2273844940.00,02
532,2273855830.00,00
533,2273866710.00,06
534,2273877600.00,8A
535,2273888490.00,98
536,2273899370.00,C1
537,2283778140.00,B5
538,2283789020.00,62
539,2283799910.00,05
540,2283810790.00,01
541,2283821690.00,02
542,2283832570.00,00
543,2283843460.00,06
544,2283854350.00,8A
545,2283865230.00,98
546,2283876120.00,C1
547,2293763320.00,B5
548,2293774210.00,62
549,2293785100.00,05
550,2293795980.00,01
551,2293806870.00,02
552,2293817750.00,00
553,2293828650.00,06
554,2293839530.00,8A
555,2293850420.00,98
556,2293861300.00,C1
557,2303772320.00,B5
558,2303783210.00,62
559,2303794100.00,05
560,2303804980.00,01
561,2303815870.00,02
562,2303826750.00,00
563,2303837650.00,06
564,2303848530.00,8A
565,2303859420.00,98
566,2303870300.00,C1
567,2313755330.00,B5
568,2313766210.00,62
569,2313777100.00,06
570,2313787990.00,8B
571,2313798870.00,09
572,2313809760.00,00
573,2313820650.00,01
574,2313831530.00,04
575,2313842430.00,00
576,2313853310.00,00
577,2313864200.00,01
578,2313875080.00,00
579,2313885970.00,C7
580,2313896860.00,10
581,2313907750.00,00
582,2313918630.00,77
583,2313929520.00,D8
584,2313940410.00,B5
585,2313951290.00,62
586,2313962180.00,05
587,2313973070.00,01
588,2313983950.00,02
589,2313994850.00,00
590,2314005730.00,06
591,2314016620.00,8B
592,2314027500.00,99
593,2314038390.00,C2
594,2323790930.00,B5
595,2323801820.00,62
596,2323812710.00,06
597,2323823590.00,8B
598,2323834480.00,09
599,2323845370.00,00
600,2323856250.00,01
601,2323867150.00,04
602,2323878030.00,00
603,2323888920.00,00
604,2323899800.00,02
605,2323910690.00,00
606,2323921580.00,C7
607,2323932470.00,10
608,2323943350.00,00
609,2323954240.00,78
610,2323965130.00,DD
611,2323976010.00,B5
612,2323986900.00,62
613,2323997790.00,05
614,2324008670.00,01
615,2324019570.00,02
616,2324030450.00,00
617,2324041340.00,06
618,2324052220.00,8B
619,2324063110.00,99
620,2324074000.00,C2
621,2333757410.00,B5
622,2333768290.00,62
623,2333779180.00,06
624,2333790070.00,8B
625,2333800950.00,09
626,2333811840.00,00
627,2333822730.00,01
628,2333833610.00,04
629,2333844500.00,00
630,2333855390.00,00
631,2333866280.00,03
632,2333877160.00,00
633,2333888050.00,C7
634,2333898930.00,20
635,2333909830.00,1E
636,2333920710.00,A7
637,2333931600.00,20
638,2333942480.00,B5
639,2333953370.00,62
640,2333964260.00,05
641,2333975150.00,01
642,2333986030.00,02
643,2333996920.00,00
644,2334007810.00,06
645,2334018700.00,8B
646,2334029580.00,99
647,2334040470.00,C2
648,2343784030.00,B5
649,2343794910.00,62
650,2343805800.00,06
651,2343816690.00,8B
652,2343827570.00,10
653,2343838470.00,00
654,2343849350.00,01
655,2343860240.00,04
656,2343871120.00,00
657,2343882010.00,00
658,2343892900.00,04
659,2343903790.00,00
660,2343914670.00,C7
661,2343925560.00,50
662,2343936450.00,6A
663,2343947330.00,FD
664,2343958220.00,DD
665,2343969110.00,D2
666,2343979990.00,50
667,2343990890.00,21
668,2344001770.00,EB
669,2344012660.00,B3
670,2344023540.00,E6
671,2344034430.00,AA
672,2344045320.00,B5
673,2344056210.00,62
674,2344067090.00,05
675,2344077980.00,01
676,2344088870.00,02
677,2344099750.00,00
678,2344110640.00,06
679,2344121530.00,8B
680,2344132410.00,99
681,2344143300.00,C2
682,2353758390.00,B5
683,2353769280.00,62
684,2353780170.00,06
685,2353791050.00,8B
686,2353801940.00,10
687,2353812830.00,00
688,2353823720.00,01
689,2353834600.00,04
690,2353845490.00,00
691,2353856370.00,00
692,2353867270.00,05
693,2353878150.00,00
694,2353889040.00,C7
695,2353899920.00,50
696,2353910810.00,1D
697,2353921700.00,EB
698,2353932590.00,ED
699,2353943470.00,47
700,2353954360.00,60
701,2353965250.00,44
702,2353976140.00,12
703,2353987020.00,42
704,2353997910.00,F6
705,2354008790.00,FF
706,2354019680.00,B5
707,2354030570.00,62
708,2354041460.00,05
709,2354052340.00,01
710,2354063230.00,02
711,2354074120.00,00
712,2354085010.00,06
713,2354095890.00,8B
714,2354106780.00,99
715,2354117670.00,C2
716,2363776440.00,B5
717,2363787330.00,62
718,2363798210.00,06
719,2363809100.00,8B
720,2363819990.00,10
721,2363830880.00,00
722,2363841760.00,01
723,2363852650.00,04
724,2363863530.00,00
725,2363874430.00,00
726,2363885310.00,06
727,2363896200.00,00
728,2363907080.00,C7
729,2363917970.00,50
730,2363928860.00,6A
731,2363939750.00,C4
732,2363950630.00,43
733,2363961520.00,75
734,2363972410.00,06
735,2363983300.00,5A
736,2363994180.00,7A
737,2364005070.00,FD
738,2364015950.00,80
739,2364026850.00,B1
740,2364037730.00,B5
741,2364048620.00,62
742,2364059500.00,05
743,2364070390.00,01
744,2364081280.00,02
745,2364092170.00,00
746,2364103050.00,06
747,2364113940.00,8B
748,2364124830.00,99
749,2364135710.00,C2
750,2373777620.00,B5
751,2373788500.00,62
752,2373799390.00,06
753,2373810270.00,8B
754,2373821170.00,10
755,2373832050.00,00
756,2373842940.00,01
757,2373853830.00,04
758,2373864710.00,00
759,2373875600.00,00
760,2373886490.00,07
761,2373897370.00,00
762,2373908260.00,C7
763,2373919150.00,50
764,2373930040.00,41
765,2373940920.00,77
766,2373951810.00,D2
767,2373962690.00,E9
768,2373973590.00,A1
769,2373984470.00,F0
770,2373995360.00,00
771,2374006240.00,00
772,2374017130.00,C8
773,2374028020.00,35
774,2374038910.00,B5
775,2374049790.00,62
776,2374060680.00,05
777,2374071570.00,01
778,2374082460.00,02
779,2374093340.00,00
780,2374104230.00,06
781,2374115110.00,8B
782,2374126010.00,99
783,2374136890.00,C2
